time,x,y,theta
0.02500,0.99685,0.41199,2.23977
0.05000,0.99603,0.41303,2.23829
0.07501,0.99450,0.41497,2.23572
0.10001,0.99251,0.41752,2.23511
0.12501,0.98970,0.42108,2.23883
0.15001,0.98624,0.42544,2.24842
0.17502,0.98224,0.43035,2.26241
0.20014,0.97770,0.43574,2.27958
0.22514,0.97267,0.44149,2.30012
0.25015,0.96751,0.44710,2.32621
0.27515,0.96230,0.45248,2.35770
0.30015,0.95699,0.45760,2.39196
0.32515,0.95135,0.46266,2.42947
0.35016,0.94571,0.46734,2.46786
0.37516,0.94005,0.47168,2.50746
0.40016,0.93427,0.47576,2.54638
0.42517,0.92834,0.47961,2.58457
0.45017,0.92246,0.48313,2.62180
0.47517,0.91638,0.48647,2.65674
0.50018,0.91015,0.48962,2.68918
0.52518,0.90385,0.49256,2.71939
0.55018,0.89742,0.49534,2.74723
0.57518,0.89108,0.49789,2.77285
0.60019,0.88448,0.50035,2.79393
0.62519,0.87774,0.50274,2.80805
0.65019,0.87095,0.50506,2.81475
0.67519,0.86405,0.50739,2.81664
0.70019,0.85740,0.50963,2.81306
0.72520,0.85087,0.51189,2.80447
0.75020,0.84447,0.51418,2.79319
0.77520,0.83838,0.51643,2.77947
0.80020,0.83249,0.51871,2.76406
0.82520,0.82669,0.52107,2.74730
0.85021,0.82093,0.52354,2.72730
0.87521,0.81521,0.52612,2.70587
0.90021,0.80957,0.52883,2.68229
0.92521,0.80411,0.53161,2.65870
0.95021,0.79860,0.53458,2.63356
0.97522,0.79337,0.53757,2.61025
1.00022,0.78814,0.54074,2.58632
1.02522,0.78317,0.54390,2.56504
1.05022,0.77822,0.54719,2.54307
1.07523,0.77340,0.55055,2.52266
1.10023,0.76873,0.55395,2.50361
1.12523,0.76414,0.55741,2.48570
1.15024,0.75971,0.56088,2.46901
4.68307,0.69706,1.23322,0.75287
4.70808,0.70160,1.23744,0.75186
4.73308,0.70609,1.24162,0.75030
4.75808,0.71097,1.24629,0.74557
4.78308,0.71597,1.25072,0.73632
4.80809,0.72107,1.25529,0.72361
4.83309,0.72603,1.25959,0.70476
4.85809,0.73095,1.26368,0.68083
4.88310,0.73605,1.26770,0.65312
4.90810,0.74108,1.27144,0.62204
4.93310,0.74601,1.27484,0.58656
4.95810,0.75124,1.27818,0.54993
4.98311,0.75690,1.28150,0.51181
5.00811,0.76244,1.28448,0.47539
5.03311,0.76819,1.28731,0.43883
5.05811,0.77404,1.28994,0.40504
5.08312,0.77977,1.29229,0.37415
5.10812,0.78561,1.29448,0.34563
5.13312,0.79140,1.29648,0.32124
5.15812,0.79717,1.29834,0.30137
5.18312,0.80293,1.30008,0.28792
5.20813,0.80874,1.30178,0.28055
5.23313,0.81453,1.30343,0.27900
5.25813,0.82032,1.30510,0.28191
5.28313,0.82612,1.30680,0.28779
5.30813,0.83191,1.30854,0.29677
5.33314,0.83735,1.31024,0.31083
5.35814,0.84296,1.31209,0.32617
5.38314,0.84881,1.31412,0.34293
5.40815,0.85450,1.31622,0.36104
5.43315,0.86003,1.31837,0.38172
5.45815,0.86548,1.32062,0.40260
5.48315,0.87102,1.32305,0.42241
5.50815,0.87656,1.32560,0.44018
5.53315,0.88212,1.32828,0.45782
5.55816,0.88745,1.33096,0.47586
5.58316,0.89266,1.33370,0.49377
5.60816,0.89776,1.33650,0.50985
5.63316,0.90300,1.33948,0.52384
5.65817,0.90817,1.34252,0.53736
5.68317,0.91314,1.34552,0.55135
5.70817,0.91815,1.34865,0.56297
5.73317,0.92347,1.35204,0.57149
5.75817,0.92867,1.35542,0.57980
5.78318,0.93372,1.35875,0.58845
5.80818,0.93895,1.36226,0.59487
5.83318,0.94427,1.36588,0.59906
5.85818,0.94945,1.36944,0.60318
5.88319,0.95471,1.37307,0.60636
5.90819,0.95996,1.37672,0.60764
5.93319,0.96511,1.38031,0.60805
5.95819,0.97020,1.38385,0.60744
5.98320,0.97529,1.38737,0.60555
6.00820,0.98037,1.39089,0.60278
6.03320,0.98546,1.39437,0.59940
6.05821,0.99049,1.39780,0.59588
6.08321,0.99556,1.40122,0.59163
6.10821,1.00058,1.40458,0.58703
6.13322,1.00546,1.40782,0.58352
6.15822,1.01056,1.41116,0.57791
6.18322,1.01558,1.41440,0.57210
6.50701,1.08115,1.45386,0.53087
6.53201,1.08633,1.45690,0.53276
6.55701,1.09158,1.46001,0.53655
6.58202,1.09685,1.46316,0.54054
6.60702,1.10212,1.46634,0.54567
6.63202,1.10734,1.46954,0.55236
6.65702,1.11266,1.47283,0.55865
6.68202,1.11792,1.47614,0.56520
6.70703,1.12292,1.47935,0.57433
6.73203,1.12792,1.48262,0.58250
6.75703,1.13311,1.48606,0.58940
6.78203,1.13813,1.48945,0.59730
6.80704,1.14304,1.49281,0.60656
6.83204,1.14806,1.49633,0.61379
6.85704,1.15315,1.49993,0.61974
6.88204,1.15803,1.50344,0.62751
6.90704,1.16296,1.50705,0.63393
6.93205,1.16806,1.51081,0.63846
6.95705,1.17299,1.51449,0.64380
6.98205,1.17792,1.51821,0.64873
7.00706,1.18302,1.52209,0.65123
7.03206,1.18802,1.52592,0.65387
7.05706,1.19298,1.52973,0.65644
7.08206,1.19798,1.53357,0.65786
7.10707,1.20289,1.53737,0.65840
7.13207,1.20780,1.54119,0.65900
7.15707,1.21276,1.54502,0.65954
7.18208,1.21763,1.54880,0.65900
7.20708,1.22254,1.55259,0.65765
7.23208,1.22740,1.55634,0.65596
7.25708,1.23219,1.56002,0.65441
7.28209,1.23709,1.56377,0.65130
7.30709,1.24182,1.56736,0.64833
7.33209,1.24651,1.57091,0.64623
7.35709,1.25141,1.57459,0.64245
7.38210,1.25615,1.57813,0.64055
7.40710,1.26082,1.58161,0.63893
7.43210,1.26571,1.58523,0.63582
7.45710,1.27045,1.58872,0.63555
7.48210,1.27519,1.59222,0.63596
7.50711,1.28016,1.59589,0.63508
7.53211,1.28495,1.59942,0.63765
7.55711,1.28980,1.60304,0.64082
7.58212,1.29483,1.60679,0.64326
7.60712,1.29975,1.61050,0.64711
7.63212,1.30464,1.61422,0.65137
7.65713,1.30954,1.61796,0.65535
7.68213,1.31440,1.62171,0.66042
7.70713,1.31917,1.62544,0.66624
7.73213,1.32400,1.62927,0.67333
7.75714,1.32876,1.63310,0.68158
7.78214,1.33346,1.63694,0.69009
7.80714,1.33819,1.64088,0.69888
7.83215,1.34289,1.64486,0.70813
7.85715,1.34745,1.64881,0.71834
7.88215,1.35205,1.65287,0.72834
7.90715,1.35670,1.65706,0.73746
7.93216,1.36121,1.66120,0.74747
7.95716,1.36547,1.66518,0.75943
7.98216,1.36979,1.66934,0.76997
8.00716,1.37419,1.67364,0.77889
8.03216,1.37844,1.67789,0.78883
8.05717,1.38258,1.68209,0.79896
8.08217,1.38681,1.68648,0.80829
8.10717,1.39105,1.69094,0.81552
8.13218,1.39510,1.69528,0.82383
8.15718,1.39914,1.69968,0.83208
8.18218,1.40329,1.70427,0.83816
8.20719,1.40736,1.70882,0.84485
8.23219,1.41133,1.71332,0.85282
8.25719,1.41531,1.71793,0.85985
8.28220,1.41939,1.72270,0.86587
8.30720,1.42336,1.72739,0.87303
8.33220,1.42732,1.73214,0.88060
8.35721,1.43126,1.73695,0.88776
8.38221,1.43521,1.74183,0.89547
8.40721,1.43907,1.74671,0.90351
8.43221,1.44291,1.75162,0.91236
8.45722,1.44671,1.75658,0.92250
8.48222,1.45043,1.76155,0.93372
8.50722,1.45411,1.76659,0.94561
8.53222,1.45783,1.77181,0.95886
8.55722,1.46138,1.77696,0.97447
8.58223,1.46480,1.78209,0.99217
8.60723,1.46826,1.78748,1.01002
8.63223,1.47164,1.79298,1.02819
8.65724,1.47483,1.79840,1.04887
8.68224,1.47786,1.80380,1.07199
8.70724,1.48076,1.80927,1.09476
8.73224,1.48360,1.81492,1.11720
8.75725,1.48628,1.82061,1.14045
8.78225,1.48879,1.82625,1.16592
8.80725,1.49116,1.83199,1.19282
8.83226,1.49336,1.83775,1.22093
8.85726,1.49538,1.84356,1.24966
8.88226,1.49725,1.84946,1.27844
8.90727,1.49896,1.85546,1.30750
8.93227,1.50051,1.86155,1.33758
8.95727,1.50185,1.86763,1.36954
8.98227,1.50299,1.87376,1.40354
9.00728,1.50391,1.87984,1.43847
9.03228,1.50462,1.88599,1.47470
9.05728,1.50510,1.89217,1.51112
9.08228,1.50537,1.89852,1.54687
9.10729,1.50541,1.90491,1.58269
9.13229,1.50522,1.91130,1.61790
9.15729,1.50480,1.91770,1.65372
9.18230,1.50415,1.92410,1.68981
9.20730,1.50329,1.93038,1.72556
9.23231,1.50222,1.93654,1.76049
9.25731,1.50093,1.94267,1.79530
9.28231,1.49944,1.94872,1.82956
9.30731,1.49774,1.95474,1.86308
9.33232,1.49585,1.96066,1.89538
9.35732,1.49376,1.96658,1.92600
9.38232,1.49150,1.97240,1.95533
9.40732,1.48909,1.97813,1.98371
9.43232,1.48655,1.98370,2.01088
9.45733,1.48390,1.98917,2.03757
9.48233,1.48111,1.99452,2.06325
9.50733,1.47823,1.99973,2.08738
9.53233,1.47521,2.00490,2.11049
9.55733,1.47205,2.01005,2.13246
9.58234,1.46883,2.01506,2.15354
9.60734,1.46556,2.01990,2.17422
9.63234,1.46213,2.02478,2.19402
9.65735,1.45863,2.02956,2.21274
9.68235,1.45503,2.03431,2.23038
9.70735,1.45133,2.03897,2.24707
9.73236,1.44758,2.04357,2.26302
9.75736,1.44370,2.04818,2.27735
9.78236,1.43980,2.05269,2.28985
9.80737,1.43585,2.05715,2.30222
9.83237,1.43196,2.06144,2.31357
9.85737,1.42788,2.06582,2.32357
9.88237,1.42368,2.07027,2.33155
9.90738,1.41963,2.07449,2.34114
9.93238,1.41556,2.07864,2.35169
9.95739,1.41128,2.08292,2.36013
9.98239,1.40692,2.08721,2.36851
10.00739,1.40269,2.09129,2.37912
10.03239,1.39845,2.09530,2.38899
10.05740,1.39402,2.09942,2.39744
10.08240,1.38954,2.10351,2.40629
10.10740,1.38518,2.10741,2.41737
10.13241,1.38064,2.11138,2.42751
10.15741,1.37586,2.11548,2.43650
10.18241,1.37118,2.11943,2.44677
10.20741,1.36660,2.12320,2.45785
10.23242,1.36191,2.12698,2.46948
10.25742,1.35704,2.13081,2.48002
10.28242,1.35231,2.13446,2.49124
10.30743,1.34760,2.13799,2.50347
10.33243,1.34278,2.14153,2.51462
10.35743,1.33787,2.14503,2.52611
10.38243,1.33304,2.14841,2.53780
10.40743,1.32807,2.15180,2.54976
10.43244,1.32301,2.15515,2.56159
10.45744,1.31798,2.15841,2.57355
10.48244,1.31290,2.16161,2.58578
10.50744,1.30775,2.16476,2.59741
10.53245,1.30259,2.16785,2.60856
10.55745,1.29736,2.17090,2.62045
10.58245,1.29215,2.17384,2.63363
10.60745,1.28685,2.17675,2.64600
10.63246,1.28124,2.17973,2.65755
10.65746,1.27576,2.18257,2.67026
10.68246,1.27048,2.18522,2.68405
10.70746,1.26496,2.18789,2.69675
10.73247,1.25924,2.19058,2.70743
10.75747,1.25364,2.19314,2.71851
10.78247,1.24814,2.19558,2.73054
10.80747,1.24241,2.19804,2.74115
10.83248,1.23654,2.20049,2.75000
10.85748,1.23087,2.20281,2.76001
10.88248,1.22525,2.20503,2.77001
10.90749,1.21942,2.20727,2.77785
10.93249,1.21366,2.20944,2.78555
10.95749,1.20810,2.21148,2.79407
10.98249,1.20246,2.21350,2.80204
11.00750,1.19664,2.21553,2.80812
11.03250,1.19087,2.21751,2.81488
11.05750,1.18513,2.21943,2.82225
11.08250,1.17931,2.22133,2.82894
11.10750,1.17345,2.22321,2.83563
11.13251,1.16762,2.22502,2.84279
11.15751,1.16180,2.22680,2.84989
11.18251,1.15592,2.22853,2.85779
11.20752,1.15008,2.23021,2.86631
11.32041,1.12331,2.23722,2.90665
11.34541,1.11715,2.23867,2.91537
11.37042,1.11114,2.24001,2.92666
11.39542,1.10529,2.24125,2.93896
11.42042,1.09922,2.24247,2.95004
11.44542,1.09289,2.24366,2.96038
11.47043,1.08689,2.24472,2.97241
11.49543,1.08090,2.24570,2.98484
11.52043,1.07467,2.24665,2.99633
11.54543,1.06838,2.24754,3.00742
11.57044,1.06236,2.24831,3.02066
11.59544,1.05629,2.24900,3.03404
11.62044,1.04999,2.24965,3.04553
11.64545,1.04372,2.25022,3.05743
11.67045,1.03768,2.25068,3.07162
11.69545,1.03159,2.25107,3.08459
11.72045,1.02537,2.25139,3.09669
11.74546,1.01919,2.25163,3.10865
11.77046,1.01315,2.25179,3.12129
11.79546,1.00718,2.25187,3.13379
11.82047,1.00121,2.25188,-3.13770
11.84547,0.99528,2.25182,-3.12601
11.87047,0.98937,2.25170,-3.11425
11.89548,0.98348,2.25150,-3.10236
11.92048,0.97755,2.25123,-3.09040
11.94548,0.97162,2.25089,-3.07904
11.97049,0.96568,2.25049,-3.06789
11.99549,0.95973,2.25002,-3.05796
12.02049,0.95370,2.24949,-3.04850
12.04549,0.94768,2.24889,-3.03816
12.07050,0.94169,2.24824,-3.02802
12.09550,0.93551,2.24751,-3.01937
12.12050,0.92924,2.24671,-3.00984
12.14551,0.92324,2.24588,-2.99815
12.17051,0.91717,2.24496,-2.98713
12.19551,0.91080,2.24394,-2.97760
12.22052,0.90464,2.24289,-2.96699
12.24552,0.89870,2.24181,-2.95490
12.27052,0.89264,2.24063,-2.94469
12.29552,0.88647,2.23937,-2.93584
12.32053,0.88061,2.23812,-2.92523
12.34553,0.87480,2.23680,-2.91462
12.37053,0.86874,2.23538,-2.90610
12.39553,0.86269,2.23390,-2.89732
12.42054,0.85693,2.23243,-2.88691
12.44554,0.85108,2.23088,-2.87671
12.47054,0.84517,2.22924,-2.86779
12.49554,0.83934,2.22758,-2.85947
12.52054,0.83368,2.22591,-2.85069
12.54554,0.82798,2.22418,-2.84326
12.57055,0.82230,2.22242,-2.83616
12.59555,0.81654,2.22057,-2.82785
12.62055,0.81077,2.21867,-2.81906
12.64555,0.80503,2.21673,-2.81041
12.67056,0.79926,2.21471,-2.80115
12.69556,0.79350,2.21264,-2.79176
12.72056,0.78771,2.21050,-2.78243
12.74556,0.78201,2.20833,-2.77311
12.77057,0.77634,2.20610,-2.76304
12.79557,0.77066,2.20381,-2.75317
12.82058,0.76483,2.20140,-2.74466
12.84558,0.75918,2.19900,-2.73465
12.87058,0.75370,2.19660,-2.72337
12.89559,0.74812,2.19408,-2.71424
12.92059,0.74241,2.19146,-2.70695
12.94560,0.73696,2.18889,-2.69762
12.97060,0.73148,2.18626,-2.68782
12.99560,0.72586,2.18349,-2.67944
13.02060,0.72025,2.18067,-2.66971
13.04561,0.71487,2.17788,-2.65768
13.07061,0.70939,2.17496,-2.64673
13.09561,0.70377,2.17188,-2.63660
13.12061,0.69837,2.16887,-2.62531
13.14561,0.69302,2.16578,-2.61335
13.17062,0.68767,2.16262,-2.60152
13.19562,0.68230,2.15936,-2.59051
13.22062,0.67709,2.15611,-2.57854
13.24562,0.67200,2.15286,-2.56611
13.27063,0.66696,2.14955,-2.55496
13.29563,0.66187,2.14613,-2.54408
13.32063,0.65693,2.14273,-2.53212
13.34564,0.65202,2.13926,-2.51988
13.37064,0.64707,2.13566,-2.50792
13.39564,0.64226,2.13208,-2.49610
13.42064,0.63753,2.12847,-2.48319
13.44565,0.63275,2.12473,-2.47069
13.47065,0.62792,2.12085,-2.45879
13.49565,0.62323,2.11697,-2.44656
13.52066,0.61863,2.11310,-2.43372
13.54566,0.61398,2.10907,-2.42128
13.57066,0.60923,2.10486,-2.41000
13.59566,0.60475,2.10078,-2.39628
13.62067,0.60043,2.09673,-2.38182
13.64567,0.59598,2.09244,-2.36857
13.67067,0.59149,2.08801,-2.35654
13.69567,0.58719,2.08367,-2.34323
13.72067,0.58298,2.07928,-2.32843
13.74567,0.57874,2.07473,-2.31444
13.77067,0.57449,2.07004,-2.30106
13.79568,0.57036,2.06536,-2.28633
13.82068,0.56643,2.06078,-2.26970
13.84568,0.56247,2.05598,-2.25396
13.87068,0.55848,2.05101,-2.23922
13.89569,0.55468,2.04612,-2.22341
13.92069,0.55104,2.04126,-2.20591
13.94569,0.54744,2.03629,-2.18854
13.97069,0.54389,2.03122,-2.17090
13.99569,0.54036,2.02595,-2.15286
14.02070,0.53700,2.02075,-2.13407
14.04570,0.53380,2.01556,-2.11359
14.07070,0.53069,2.01029,-2.09345
14.09570,0.52761,2.00482,-2.07412
14.12071,0.52476,1.99951,-2.05358
14.14571,0.52202,1.99416,-2.03263
14.17071,0.51939,1.98871,-2.01073
14.19571,0.51683,1.98314,-1.98857
14.22072,0.51446,1.97762,-1.96586
14.24572,0.51221,1.97204,-1.94329
14.27072,0.51006,1.96636,-1.91943
14.29573,0.50808,1.96068,-1.89436
14.32073,0.50623,1.95491,-1.86848
14.34574,0.50448,1.94896,-1.84205
14.37074,0.50289,1.94291,-1.81414
14.39574,0.50148,1.93684,-1.78441
14.42075,0.50026,1.93079,-1.75258
14.44575,0.49926,1.92473,-1.71960
14.47075,0.49845,1.91865,-1.68581
14.49576,0.49785,1.91259,-1.65256
14.52076,0.49744,1.90633,-1.61972
14.54576,0.49723,1.89984,-1.58633
14.57076,0.49724,1.89341,-1.55261
14.59577,0.49746,1.88706,-1.51875
14.62077,0.49790,1.88065,-1.48388
14.64577,0.49856,1.87436,-1.44921
14.67077,0.49943,1.86819,-1.41387
14.69578,0.50051,1.86202,-1.37981
14.72078,0.50183,1.85578,-1.34588
14.74578,0.50334,1.84964,-1.31378
14.77079,0.50503,1.84360,-1.28290
14.79579,0.50693,1.83750,-1.25330
14.82079,0.50897,1.83157,-1.22484
14.84579,0.51113,1.82584,-1.19720
14.87079,0.51342,1.82022,-1.17078
14.89580,0.51583,1.81471,-1.14490
14.92080,0.51839,1.80925,-1.12084
14.94580,0.52109,1.80382,-1.09860
14.97080,0.52393,1.79839,-1.07732
14.99580,0.52682,1.79315,-1.05616
15.02080,0.52976,1.78809,-1.03494
15.04581,0.53279,1.78310,-1.01433
15.07081,0.53598,1.77807,-0.99602
15.09582,0.53938,1.77293,-0.97899
15.12082,0.54272,1.76804,-0.96209
15.14582,0.54613,1.76324,-0.94526
15.17082,0.54965,1.75844,-0.93040
15.19583,0.55332,1.75357,-0.91756
15.22083,0.55703,1.74880,-0.90701
15.24583,0.56074,1.74410,-0.89654
15.27083,0.56450,1.73943,-0.88715
15.29583,0.56827,1.73485,-0.87904
15.32084,0.57211,1.73024,-0.87140
15.34584,0.57595,1.72572,-0.86397
15.37084,0.57979,1.72125,-0.85707
15.39585,0.58368,1.71679,-0.85058
15.42085,0.58760,1.71236,-0.84450
15.44585,0.59154,1.70794,-0.83896
15.47085,0.59548,1.70357,-0.83396
15.49585,0.59937,1.69931,-0.82849
15.52086,0.60334,1.69500,-0.82321
15.54586,0.60742,1.69062,-0.81963
15.57087,0.61144,1.68634,-0.81423
15.59587,0.61547,1.68210,-0.80706
15.62087,0.61966,1.67775,-0.80179
15.64588,0.62397,1.67331,-0.79699
15.67088,0.62807,1.66915,-0.78997
15.69588,0.63227,1.66494,-0.78368
15.72089,0.63666,1.66059,-0.77854
15.74589,0.64081,1.65651,-0.77219
15.77090,0.64506,1.65240,-0.76442
15.79590,0.64944,1.64824,-0.75901
15.82090,0.65382,1.64410,-0.75334
15.84591,0.65814,1.64008,-0.74496
15.87091,0.66260,1.63600,-0.73759
15.89591,0.66717,1.63188,-0.73117
15.92091,0.67175,1.62779,-0.72407
15.94591,0.67635,1.62375,-0.71630
15.97092,0.68103,1.61972,-0.70887
15.99592,0.68572,1.61572,-0.70171
16.02092,0.69047,1.61174,-0.69414
16.04593,0.69517,1.60785,-0.68636
16.07093,0.69991,1.60400,-0.67893
16.09593,0.70471,1.60017,-0.67150
16.12094,0.70950,1.59638,-0.66481
16.14594,0.71434,1.59261,-0.65859
16.17094,0.71919,1.58888,-0.65237
16.19594,0.72404,1.58519,-0.64730
16.22095,0.72904,1.58144,-0.64325
16.24595,0.73395,1.57778,-0.63899
16.48003,0.78028,1.54426,-0.61993
16.50503,0.78510,1.54082,-0.61885
16.53003,0.79008,1.53728,-0.62007
16.55503,0.79502,1.53374,-0.62000
16.58004,0.79990,1.53027,-0.61946
16.60504,0.80482,1.52676,-0.61939
16.63004,0.80977,1.52323,-0.61845
16.65504,0.81475,1.51968,-0.61737
16.68005,0.81973,1.51616,-0.61581
16.70505,0.82467,1.51267,-0.61432
16.73005,0.82965,1.50916,-0.61257
16.75506,0.83466,1.50564,-0.61081
16.78006,0.83964,1.50218,-0.60757
16.80506,0.84471,1.49865,-0.60507
16.83007,0.84984,1.49512,-0.60297
16.85507,0.85474,1.49175,-0.59804
16.88007,0.85977,1.48834,-0.59419
16.90508,0.86504,1.48480,-0.59196
16.93008,0.87007,1.48143,-0.58709
16.95508,0.87518,1.47805,-0.58243
16.98009,0.88044,1.47460,-0.58006
17.00509,0.88555,1.47126,-0.57574
17.03009,0.89061,1.46799,-0.57134
17.05509,0.89592,1.46459,-0.56898
17.08010,0.90105,1.46131,-0.56513
17.10510,0.90616,1.45810,-0.56100
17.13010,0.91148,1.45475,-0.55864
17.15510,0.91674,1.45148,-0.55675
17.18010,0.92196,1.44824,-0.55404
17.20511,0.92719,1.44501,-0.55242
17.23011,0.93247,1.44176,-0.55141
17.25511,0.93775,1.43852,-0.55053
17.28011,0.94290,1.43535,-0.55012
17.30511,0.94811,1.43216,-0.54945
17.33011,0.95331,1.42897,-0.54972
17.35512,0.95849,1.42581,-0.55026
17.38012,0.96361,1.42266,-0.55073
17.40512,0.96878,1.41949,-0.55120
17.43012,0.97400,1.41627,-0.55269
17.45512,0.97902,1.41316,-0.55208
17.48013,0.98418,1.40999,-0.55323
17.50513,0.98944,1.40673,-0.55539
17.53014,0.99447,1.40361,-0.55533
17.55514,0.99968,1.40038,-0.55675
17.58014,1.00494,1.39710,-0.55817
17.60514,1.01000,1.39393,-0.55729
17.63014,1.01525,1.39066,-0.55810
17.65515,1.02044,1.38742,-0.55830
17.68015,1.02555,1.38424,-0.55681
17.70515,1.03076,1.38099,-0.55648
17.73016,1.03600,1.37774,-0.55621
17.75516,1.04116,1.37454,-0.55425
17.78017,1.04638,1.37131,-0.55310
17.80517,1.05155,1.36812,-0.55175
17.83017,1.05671,1.36495,-0.55060
17.85517,1.06191,1.36176,-0.54958
17.88017,1.06706,1.35861,-0.54789
17.90517,1.07228,1.35543,-0.54600
17.93018,1.07752,1.35225,-0.54526
17.95518,1.08271,1.34911,-0.54391
17.98018,1.08795,1.34595,-0.54276
18.00518,1.09326,1.34274,-0.54330
18.03018,1.09840,1.33964,-0.54181
18.05518,1.10357,1.33654,-0.54032
18.08019,1.10900,1.33327,-0.54215
18.10519,1.11422,1.33012,-0.54208
18.13019,1.11943,1.32698,-0.54309
18.15520,1.12484,1.32371,-0.54634
18.18020,1.13003,1.32055,-0.54728
18.20520,1.13525,1.31735,-0.54958
18.23021,1.14055,1.31410,-0.55296
18.25521,1.14565,1.31095,-0.55425
18.28021,1.15088,1.30771,-0.55668
18.30521,1.15608,1.30446,-0.56060
18.33021,1.16122,1.30122,-0.56283
18.35522,1.16646,1.29791,-0.56553
18.38022,1.17160,1.29464,-0.56823
18.40522,1.17673,1.29134,-0.57067
18.43022,1.18188,1.28803,-0.57276
18.45522,1.18698,1.28474,-0.57506
18.48023,1.19212,1.28140,-0.57736
18.50523,1.19723,1.27806,-0.57972
18.53023,1.20228,1.27475,-0.58216
18.55523,1.20748,1.27131,-0.58540
18.58024,1.21250,1.26797,-0.58716
18.60524,1.21746,1.26468,-0.58837
18.63024,1.22272,1.26115,-0.59189
18.65525,1.22775,1.25776,-0.59331
18.68025,1.23280,1.25435,-0.59533
18.70525,1.23799,1.25082,-0.59871
18.73025,1.24289,1.24747,-0.60013
18.75525,1.24791,1.24403,-0.60338
18.78026,1.25294,1.24054,-0.60689
18.80526,1.25777,1.23718,-0.60953
19.24572,1.34308,1.17264,-0.69265
19.27072,1.34777,1.16873,-0.69799
19.29572,1.35256,1.16469,-0.70596
19.32072,1.35717,1.16072,-0.71238
19.34572,1.36175,1.15675,-0.72022
19.37073,1.36638,1.15265,-0.72894
19.39573,1.37091,1.14857,-0.73719
19.42073,1.37546,1.14440,-0.74638
19.44573,1.37997,1.14019,-0.75530
19.47074,1.38449,1.13590,-0.76401
19.49574,1.38894,1.13160,-0.77314
19.52075,1.39342,1.12718,-0.78280
19.54575,1.39788,1.12270,-0.79247
19.57075,1.40214,1.11834,-0.80233
19.59575,1.40643,1.11385,-0.81375
19.62076,1.41058,1.10941,-0.82301
